# Wilkinson Microwave Anisotropy Probe (WMAP) 5-year data release.
# WMAP 5-Year Combined TT Power Spectrum, version 3.0 (February 2008)
#
# References: - WMAP Explanatory Supplement: http://lambda.gsfc.nasa.gov/
#             - Nolta, et.al. (2008)
#             - Dunkley, et.al. (2008)
#
# Column 1 = multipole moment l
# Column 2 = TT power spectrum, units = uK^2, =  l(l+1)/2pi * C_l.
# Column 3 = 'Error' derived from diagonal terms of Fisher matrix, units = uK^2.
#             Included only as an estimate of their magnitude.  The
#             multipole moments are slightly coupled, so a correct
#             treatment of errors requires use of the entire Fisher matrix.
# Column 4 = portion of column3 error attributed to measurement errors,
#             in "2SN + NN" form, units = uK^2.
# Column 5 = portion of column3 error attributed to cosmic variance, 
#             assuming the best-fit LCDM model described in
#             "Five-Year WMAP Observations: Likelihoods and Parameters from the WMAP data", 
#             Dunkley, et.al. (2008). Units = uK^2
# 
# The 5-yr TT power spectrum is produced by combining the  
# Maximum Likelihood estimated spectrum from l = 2-32 with the 
# pseudo-C_l based cross-power spectra for l > 32.  The errors 
# quoted in column 3 are all from the pseudo-C_l method.  The 
# actual ML errors are asymmetric.  The following table gives the 68% and 95% 
# ML confidence level (CL) intervals (including cosmic variance) in uK^2: 
# 
# 
#      l      dT2      -68%      +68%      -95%      +95% 
#  ------------------------------------------------------- 
#      2      213.       78.      678.       39.     3034.
#      3     1039.      534.     2470.      305.     6755.
#      4      674.      394.     1344.      253.     2976.
#      5     1527.      920.     2695.      632.     5269.
#      6      692.      442.     1155.      290.     2058.
#      7     1433.      930.     2215.      656.     3736.
#      8      556.      381.      852.      274.     1378.
#      9      579.      399.      871.      286.     1369.
#     10      754.      533.     1085.      393.     1639.
#     11      975.      702.     1386.      533.     2048.
#     12      791.      572.     1092.      430.     1583.
#     13      828.      601.     1135.      448.     1615.
#     14      805.      618.     1111.      471.     1547.
#     15     1078.      838.     1475.      650.     2023.
#     16      640.      478.      864.      370.     1199.
#     17      993.      779.     1331.      607.     1785.
#     18      703.      530.      908.      424.     1227.
#     19      822.      618.     1038.      494.     1384.
#     20      731.      579.      961.      465.     1272.
#     21      674.      525.      874.      413.     1151.
#     22      577.      445.      737.      351.      967.
#     23      766.      603.      966.      492.     1256.
#     24      809.      653.     1037.      524.     1329.
#     25      753.      586.      940.      470.     1213.
#     26      894.      710.     1104.      575.     1404.
#     27     1037.      840.     1289.      687.     1626.
#     28     1255.     1035.     1574.      844.     1963.
#     29     1222.      984.     1494.      820.     1882.
#     30      906.      736.     1122.      606.     1402.
#     31     1103.      915.     1364.      773.     1702.
#     32     1431.     1167.     1733.      982.     2150.
#
# Revision History:
#  v3   (7 Mar 2008) : initial release
#  v3p1 (8 Jul 2008) : fixed bug in column 4; was "SN+NN", not "2SN+NN"
# 
     2      213.4069      934.2714        5.5978      934.2546
     3     1038.6573      728.9514        5.9727      728.9269
     4      673.8259      595.1879        6.2562      595.1550
     5     1526.9226      505.6511        6.5129      505.6091
     6      692.0717      443.0213        6.7620      442.9697
     7     1432.7676      397.8419        7.0141      397.7801
     8      555.7322      364.5238        7.2745      364.4512
     9      579.1170      339.0285        7.5401      338.9446
    10      754.4681      319.4315        7.8147      319.3359
    11      975.0388      304.0342        8.0963      303.9263
    12      790.9219      291.5632        8.3810      291.4427
    13      827.6766      281.4107        8.6697      281.2771
    14      805.1919      273.1502        8.9633      273.0031
    15     1078.3898      266.2852        9.2595      266.1242
    16      639.5597      260.4388        9.5561      260.2634
    17      993.4459      255.5825        9.8559      255.3924
    18      703.3500      251.6959       10.1620      251.4906
    19      822.1944      248.4732       10.4710      248.2524
    20      731.2966      245.6387       10.7790      245.4021
    21      673.6049      243.2010       11.0871      242.9482
    22      576.8635      241.2006       11.3982      240.9311
    23      765.5804      239.5489       11.7112      239.2625
    24      809.4555      238.1513       12.0247      237.8476
    25      752.6671      236.9841       12.3392      236.6626
    26      893.9417      236.0413       12.6551      235.7018
    27     1037.0272      235.3179       12.9730      234.9600
    28     1254.8488      234.8004       13.2931      234.4238
    29     1222.3470      234.4396       13.6147      234.0439
    30      905.8812      234.1916       13.9371      233.7765
    31     1102.9618      234.0594       14.2605      233.6245
    32     1431.0562      234.0537       14.5857      233.5988
    33     1189.3630      234.1716       14.9130      233.6963
    34     1101.3940      234.4027       15.2424      233.9066
    35      888.4037      234.7182       15.5732      234.2010
    36     1078.8920      235.0949       15.9049      234.5562
    37     1433.0520      235.5449       16.2383      234.9845
    38     1472.4980      236.0825       16.5739      235.5000
    39     1407.3090      236.6992       16.9117      236.0943
    40     1897.1520      237.3816       17.2514      236.7539
    41     1223.4130      238.1186       17.5929      237.4678
    42     1299.0570      238.9057       17.9359      238.2315
    43     1421.0010      239.7402       18.2808      239.0422
    44     1416.3520      240.6196       18.6275      239.8975
    45     1101.0230      241.5415       18.9758      240.7949
    46     1120.9650      242.5043       19.3260      241.7330
    47     1666.0240      243.5089       19.6782      242.7125
    48      975.2934      244.5566       20.0327      243.7348
    49     1614.3940      245.6488       20.3894      244.8012
    50     1541.4760      246.7870       20.7487      245.9132
    51     1316.2580      247.9713       21.1106      247.0710
    52     1711.7960      249.1979       21.4750      248.2708
    53     1189.2370      250.4618       21.8417      249.5077
    54     1133.1090      251.7587       22.2107      250.7771
    55     1599.6120      253.0841       22.5824      252.0746
    56     1652.0060      254.4345       22.9558      253.3969
    57     1560.1590      255.8100       23.3315      254.7438
    58     1863.3520      257.2114       23.7096      256.1163
    59     1266.9600      258.6392       24.0901      257.5149
    60     2047.1170      260.0944       24.4727      258.9405
    61     1457.5460      261.5775       24.8581      260.3937
    62     2038.9010      263.0892       25.2461      261.8751
    63     1854.5780      264.6297       25.6368      263.3849
    64     1446.9700      266.1994       26.0306      264.9236
    65     1629.4790      267.7988       26.4267      266.4917
    66     1645.5130      269.4280       26.8265      268.0892
    67     1615.9590      271.0861       27.2286      269.7151
    68     1873.5580      272.7720       27.6341      271.3686
    69     2379.0550      274.4845       28.0423      273.0483
    70     1877.1120      276.2227       28.4537      274.7533
    71     1806.9400      277.9858       28.8677      276.4828
    72     1413.0520      279.7735       29.2852      278.2366
    73     2724.4810      281.5861       29.7052      280.0149
    74     2241.2260      283.4235       30.1288      281.8176
    75     2027.9810      285.2859       30.5551      283.6449
    76     1658.0010      287.1729       30.9847      285.4965
    77     2103.3330      289.0825       31.4175      287.3702
    78     1709.2650      291.0119       31.8533      289.2633
    79     1696.7040      292.9589       32.2920      291.1737
    80     2424.2970      294.9209       32.7334      293.0988
    81     2241.0520      296.8967       33.1774      295.0371
    82     2879.6760      298.8882       33.6243      296.9908
    83     1960.7920      300.8985       34.0745      298.9629
    84     1705.6210      302.9302       34.5278      300.9560
    85     2567.1330      304.9862       34.9847      302.9730
    86     2511.9380      307.0684       35.4452      305.0158
    87     2331.5980      309.1752       35.9092      307.0828
    88     2064.1290      311.3040       36.3766      309.1714
    89     2619.1830      313.4526       36.8473      311.2793
    90     2335.0050      315.6187       37.3213      313.4043
    91     2625.4250      317.8001       37.7984      315.5443
    92     2424.4590      319.9961       38.2787      317.6983
    93     2978.4310      322.2061       38.7619      319.8660
    94     2282.2580      324.4294       39.2483      322.0466
    95     2205.3090      326.6657       39.7379      324.2397
    96     2426.9320      328.9142       40.2305      326.4446
    97     2591.0970      331.1745       40.7261      328.6608
    98     1928.6440      333.4461       41.2248      330.8879
    99     2842.6030      335.7283       41.7265      333.1252
   100     3063.5350      338.0209       42.2311      335.3724
   101     2697.1800      340.3232       42.7390      337.6289
   102     2862.8620      342.6348       43.2496      339.8942
   103     2556.6420      344.9553       43.7634      342.1679
   104     3104.2010      347.2841       44.2801      344.4496
   105     2257.8920      349.6209       44.7994      346.7388
   106     2904.4490      351.9652       45.3221      349.0350
   107     3137.7480      354.3166       45.8478      351.3378
   108     3777.1030      356.6747       46.3762      353.6469
   109     3114.2680      359.0391       46.9076      355.9617
   110     3337.2710      361.4093       47.4417      358.2820
   111     2899.6250      363.7849       47.9790      360.6071
   112     3044.1060      366.1651       48.5189      362.9364
   113     2437.4870      368.5489       49.0616      365.2688
   114     2108.2020      370.9355       49.6070      367.6034
   115     3253.6770      373.3240       50.1554      369.9395
   116     3709.8350      375.7135       50.7063      372.2761
   117     4369.7840      378.1030       51.2597      374.6123
   118     4000.1770      380.4921       51.8158      376.9474
   119     3539.9520      382.8795       52.3744      379.2804
   120     2833.4900      385.2646       52.9352      381.6107
   121     4330.8160      387.6468       53.4988      383.9373
   122     3411.3980      390.0249       54.0645      386.2596
   123     3870.8190      392.3984       54.6324      388.5766
   124     2890.2900      394.7665       55.2029      390.8878
   125     3481.4250      397.1284       55.7753      393.1922
   126     3737.3710      399.4835       56.3502      395.4893
   127     3582.0510      401.8309       56.9269      397.7781
   128     3644.5890      404.1700       57.5058      400.0580
   129     3387.1470      406.4999       58.0868      402.3284
   130     3970.5780      408.8202       58.6697      404.5885
   131     3499.9690      411.1300       59.2544      406.8375
   132     3323.0880      413.4281       59.8413      409.0744
   133     3799.9400      415.7136       60.4297      411.2980
   134     3732.3990      417.9852       61.0193      413.5073
   135     4264.9110      420.2419       61.6112      415.7010
   136     4993.3700      422.4826       62.2044      417.8782
   137     3993.4070      424.7063       62.7990      420.0378
   138     4036.8460      426.9118       63.3946      422.1786
   139     4552.7450      429.0982       63.9920      424.2998
   140     4232.8120      431.2644       64.5904      426.4001
   141     4397.2420      433.4094       65.1896      428.4787
   142     4592.4090      435.5322       65.7898      430.5345
   143     4515.5110      437.6317       66.3911      432.5665
   144     3942.2190      439.7071       66.9927      434.5737
   145     5255.5900      441.7574       67.5948      436.5553
   146     4263.0240      443.7818       68.1995      438.5101
   147     4449.0830      445.7790       68.8034      440.4373
   148     3873.5160      447.7482       69.4072      442.3360
   149     3793.6890      449.6886       70.0114      444.2051
   150     4581.2720      451.5994       70.6179      446.0439
   151     4349.4270      453.4794       71.2226      447.8515
   152     4394.5750      455.3285       71.8274      449.6275
   153     4846.3330      457.1466       72.4333      451.3717
   154     4168.6590      458.9331       73.0376      453.0840
   155     4824.8120      460.6884       73.6435      454.7642
   156     4077.5630      462.4119       74.2495      456.4119
   157     4701.4560      464.1031       74.8535      458.0269
   158     5441.7480      465.7627       75.4604      459.6092
   159     5075.2340      467.3896       76.0655      461.1584
   160     4992.2930      468.9837       76.6688      462.6744
   161     4537.1600      470.5453       77.2742      464.1569
   162     4464.7840      472.0739       77.8791      465.6057
   163     4544.0150      473.5692       78.4829      467.0206
   164     4845.1660      475.0312       79.0875      468.4014
   165     4757.6600      476.4593       79.6893      469.7479
   166     5038.7030      477.8540       80.2935      471.0598
   167     5177.3610      479.2141       80.8949      472.3370
   168     5164.7240      480.5403       81.4965      473.5792
   169     5110.1360      481.8319       82.0970      474.7864
   170     4532.5820      483.0890       82.6971      475.9582
   171     4680.2180      484.3113       83.2972      477.0943
   172     4962.6220      485.4986       83.8967      478.1947
   173     5090.4700      486.6506       84.4950      479.2592
   174     4860.6920      487.7671       85.0922      480.2874
   175     5154.2300      488.8478       85.6879      481.2793
   176     5119.1260      489.8927       86.2831      482.2345
   177     5125.0830      490.9014       86.8781      483.1525
   178     4949.7690      491.8725       87.4699      484.0326
   179     6220.5020      492.8062       88.0619      484.8742
   180     5458.4970      493.7014       88.6521      485.6767
   181     4086.5400      494.5577       89.2413      486.4394
   182     4701.7350      495.3742       89.8277      487.1618
   183     5016.1570      496.1510       90.4146      487.8432
   184     5596.0930      496.8867       90.9984      488.4830
   185     5723.8830      497.5812       91.5812      489.0807
   186     5053.4480      498.2334       92.1606      489.6355
   187     5204.4160      498.8431       92.7376      490.1470
   188     6182.3110      499.4097       93.3135      490.6146
   189     6163.1540      499.9328       93.8876      491.0376
   190     5592.9560      500.4114       94.4590      491.4154
   191     5561.1810      500.8452       95.0274      491.7476
   192     6020.9600      501.2333       95.5926      492.0334
   193     5853.8170      501.5756       96.1555      492.2725
   194     5143.0380      501.8714       96.7161      492.4641
   195     4753.1950      502.1202       97.2739      492.6078
   196     5704.1200      502.3211       97.8280      492.7029
   197     5590.3840      502.4739       98.3792      492.7490
   198     5839.8950      502.5779       98.9266      492.7454
   199     5616.7990      502.6327       99.4714      492.6917
   200     5824.0210      502.6374      100.0105      492.5873
   201     5331.8000      502.5920      100.5473      492.4317
   202     5813.9770      502.4968      101.0804      492.2254
   203     5838.4000      502.3522      101.6095      491.9687
   204     6145.0620      502.1588      102.1358      491.6622
   205     5576.3680      501.9165      102.6572      491.3061
   206     5559.4000      501.6261      103.1746      490.9010
   207     5246.3930      501.2879      103.6876      490.4472
   208     5350.4520      500.9027      104.1975      489.9453
   209     4765.4910      500.4707      104.7039      489.3956
   210     6146.0500      499.9918      105.2044      488.7984
   211     5471.2440      499.4672      105.7020      488.1542
   212     5638.3300      498.8969      106.1950      487.4635
   213     5999.6250      498.2815      106.6852      486.7266
   214     5584.1760      497.6211      107.1698      485.9439
   215     6673.7330      496.9161      107.6495      485.1157
   216     5779.8060      496.1674      108.1261      484.2425
   217     5330.6480      495.3747      108.5978      483.3246
   218     6080.5960      494.5390      109.0658      482.3624
   219     5390.4050      493.6603      109.5291      481.3563
   220     6384.6700      492.7388      109.9869      480.3066
   221     6339.2170      491.7755      110.4418      479.2137
   222     5797.6100      490.7702      110.8912      478.0779
   223     5840.6810      489.7234      111.3361      476.8996
   224     5508.8480      488.6353      111.7754      475.6792
   225     5804.1300      487.5067      112.2113      474.4169
   226     5921.2210      486.3375      112.6415      473.1131
   227     5813.2590      485.1285      113.0680      471.7682
   228     4955.7600      483.8793      113.4879      470.3824
   229     5176.2590      482.5909      113.9039      468.9562
   230     5560.2730      481.2634      114.3145      467.4898
   231     5755.5370      479.8972      114.7204      465.9834
   232     6310.1090      478.4924      115.1207      464.4376
   233     6041.8760      477.0498      115.5167      462.8525
   234     4737.7080      475.5692      115.9069      461.2285
   235     6009.6650      474.0508      116.2905      459.5658
   236     6249.1660      472.4955      116.6702      457.8647
   237     5096.0410      470.9034      117.0444      456.1256
   238     5952.6180      469.2745      117.4125      454.3488
   239     5625.3550      467.6095      117.7757      452.5345
   240     6229.2770      465.9084      118.1331      450.6830
   241     5573.6550      464.1715      118.4845      448.7946
   242     5306.4100      462.3992      118.8298      446.8696
   243     5625.3880      460.5917      119.1698      444.9082
   244     5135.7620      458.7494      119.5036      442.9107
   245     6413.9920      456.8723      119.8309      440.8774
   246     5708.4700      454.9611      120.1526      438.8086
   247     6127.8690      453.0159      120.4688      436.7043
   248     5724.0120      451.0367      120.7776      434.5651
   249     4548.2760      449.0239      121.0802      432.3911
   250     5431.5690      446.9782      121.3773      430.1825
   251     5179.1540      444.8992      121.6669      427.9398
   252     6106.8030      442.7883      121.9503      425.6637
   253     4985.1400      440.6463      122.2274      423.3551
   254     5100.3830      438.4742      122.4982      421.0152
   255     5428.2370      436.2728      122.7624      418.6446
   256     5785.6250      434.0430      123.0197      416.2444
   257     5439.4240      431.7859      123.2711      413.8156
   258     5295.0850      429.5021      123.5150      411.3588
   259     4707.1510      427.1932      123.7540      408.8752
   260     5795.3420      424.8592      123.9855      406.3655
   261     4953.9440      422.5016      124.2109      403.8307
   262     5842.3130      420.1211      124.4301      401.2716
   263     5843.8770      417.7186      124.6428      398.6891
   264     4879.5260      415.2951      124.8498      396.0840
   265     4717.4170      412.8510      125.0493      393.4572
   266     5401.5630      410.3878      125.2435      390.8097
   267     4895.5100      407.9059      125.4312      388.1421
   268     5542.5820      405.4063      125.6125      385.4553
   269     4947.6580      402.8899      125.7879      382.7502
   270     4447.6830      400.3575      125.9568      380.0276
   271     5075.2860      397.8099      126.1197      377.2884
   272     5936.7310      395.2477      126.2761      374.5332
   273     4861.5540      392.6721      126.4264      371.7630
   274     5563.5990      390.0839      126.5712      368.9785
   275     4454.9920      387.4836      126.7095      366.1806
   276     3938.3850      384.8723      126.8420      363.3701
   277     5149.0450      382.2505      126.9680      360.5476
   278     4595.5520      379.6193      127.0884      357.7141
   279     5169.2970      376.9795      127.2033      354.8702
   280     4262.8410      374.3316      127.3119      352.0168
   281     4445.2350      371.6765      127.4144      349.1547
   282     5609.9430      369.0153      127.5122      346.2845
   283     5573.8590      366.3482      127.6034      343.4070
   284     4510.9610      363.6761      127.6885      340.5231
   285     3949.2910      361.0000      127.7683      337.6334
   286     4878.3170      358.3208      127.8429      334.7387
   287     4332.2650      355.6389      127.9118      331.8397
   288     4275.2410      352.9551      127.9752      328.9371
   289     4972.8660      350.2700      128.0327      326.0318
   290     4569.6340      347.5847      128.0851      323.1243
   291     3587.0640      344.8998      128.1324      320.2155
   292     4576.1090      342.2158      128.1740      317.3060
   293     4527.0640      339.5338      128.2110      314.3965
   294     4472.4080      336.8541      128.2420      311.4878
   295     4116.6400      334.1777      128.2685      308.5805
   296     4449.2630      331.5054      128.2902      305.6754
   297     4381.3790      328.8374      128.3063      302.7731
   298     3969.4610      326.1751      128.3183      299.8743
   299     4326.4310      323.5186      128.3251      296.9797
   300     5015.4440      320.8690      128.3276      294.0900
   301     3569.0220      318.2267      128.3254      291.2058
   302     4202.3000      315.5923      128.3184      288.3277
   303     3645.6150      312.9665      128.3070      285.4564
   304     4196.4300      310.3500      128.2914      282.5924
   305     4050.0270      307.7433      128.2715      279.7362
   306     3615.0010      305.1471      128.2477      276.8886
   307     3665.2070      302.5618      128.2194      274.0500
   308     3921.3700      299.9882      128.1874      271.2211
   309     3923.6920      297.4265      128.1510      268.4024
   310     3901.3350      294.8779      128.1115      265.5944
   311     3789.0710      292.3424      128.0679      262.7978
   312     3685.7010      289.8209      128.0208      260.0131
   313     3641.3940      287.3139      127.9703      257.2409
   314     2944.7230      284.8218      127.9163      254.4816
   315     3815.5590      282.3455      127.8592      251.7359
   316     3757.7280      279.8853      127.7991      249.0044
   317     3203.4690      277.4416      127.7355      246.2874
   318     3087.8210      275.0154      127.6693      243.5857
   319     3744.7000      272.6084      127.6011      240.9011
   320     3677.2600      270.2202      127.5304      238.2330
   321     2828.7150      267.8510      127.4575      235.5817
   322     3762.3960      265.5009      127.3816      232.9477
   323     3121.9670      263.1714      127.3048      230.3316
   324     3509.8940      260.8614      127.2251      227.7333
   325     3224.0180      258.5715      127.1433      225.1528
   326     3650.1290      256.3028      127.0591      222.5918
   327     3008.8020      254.0570      126.9749      220.0507
   328     3035.7430      251.8334      126.8887      217.5301
   329     3503.3790      249.6332      126.8017      215.0304
   330     2994.1250      247.4549      126.7122      212.5510
   331     3094.7250      245.3013      126.6237      210.0932
   332     2653.0470      243.1729      126.5356      207.6580
   333     2723.5790      241.0702      126.4478      205.2457
   334     2968.7310      238.9914      126.3563      202.8571
   335     2851.9570      236.9417      126.2698      200.4926
   336     3062.4710      234.9183      126.1806      198.1541
   337     2909.5170      232.9225      126.0926      195.8406
   338     2867.1950      230.9553      126.0069      193.5526
   339     2489.2160      229.0163      125.9220      191.2906
   340     3426.2080      227.1064      125.8390      189.0552
   341     2401.5590      225.2257      125.7572      186.8468
   342     2797.5820      223.3738      125.6757      184.6659
   343     2525.5960      221.5538      125.5990      182.5130
   344     2954.7310      219.7654      125.5262      180.3885
   345     2657.6550      218.0064      125.4526      178.2931
   346     2549.3420      216.2811      125.3855      176.2270
   347     2344.7490      214.5871      125.3202      174.1910
   348     2408.2190      212.9285      125.2628      172.1853
   349     2458.5920      211.3005      125.2048      170.2105
   350     2160.0370      209.7064      125.1516      168.2672
   351     2595.2370      208.1495      125.1081      166.3556
   352     2574.0930      206.6251      125.0667      164.4757
   353     2472.0730      205.1334      125.0279      162.6276
   354     2532.6970      203.6792      125.0001      160.8111
   355     2258.6970      202.2575      124.9750      159.0262
   356     2337.7930      200.8715      124.9583      157.2729
   357     2325.3190      199.5182      124.9456      155.5510
   358     2379.3240      198.2001      124.9409      153.8605
   359     2004.1270      196.9151      124.9412      152.2013
   360     2344.4570      195.6639      124.9481      150.5734
   361     2515.5810      194.4463      124.9614      148.9766
   362     2480.2160      193.2652      124.9856      147.4111
   363     2224.4140      192.1159      125.0142      145.8766
   364     2435.4080      191.0018      125.0523      144.3731
   365     1759.2510      189.9210      125.0975      142.9006
   366     1889.9660      188.8729      125.1493      141.4590
   367     2163.9150      187.8588      125.2095      140.0482
   368     2296.7730      186.8806      125.2816      138.6682
   369     2293.6420      185.9337      125.3589      137.3190
   370     1982.9820      185.0217      125.4469      136.0003
   371     2096.7380      184.1414      125.5414      134.7123
   372     2058.2420      183.2963      125.6477      133.4548
   373     2254.3310      182.4858      125.7650      132.2279
   374     2050.3710      181.7079      125.8910      131.0313
   375     2263.7630      180.9622      126.0252      129.8651
   376     1995.3230      180.2508      126.1711      128.7292
   377     1816.0100      179.5731      126.3278      127.6236
   378     2371.8500      178.9284      126.4948      126.5481
   379     2431.3710      178.3166      126.6723      125.5028
   380     1864.1260      177.7395      126.8628      124.4876
   381     2071.2430      177.1931      127.0612      123.5024
   382     1764.8750      176.6816      127.2736      122.5472
   383     1910.3920      176.2050      127.5002      121.6220
   384     1969.2770      175.7590      127.7352      120.7266
   385     1583.3990      175.3466      127.9835      119.8611
   386     1636.0950      174.9673      128.2441      119.0253
   387     2236.9190      174.6233      128.5204      118.2192
   388     1738.5900      174.3094      128.8058      117.4429
   389     1825.6070      174.0309      129.1075      116.6962
   390     1874.7030      173.7834      129.4199      115.9791
   391     1858.2240      173.5704      129.7480      115.2915
   392     1880.7740      173.3900      130.0894      114.6335
   393     1716.7710      173.2419      130.4440      114.0049
   394     1931.3840      173.1271      130.8133      113.4058
   395     1690.6010      173.0458      131.1978      112.8361
   396     1596.5650      172.9977      131.5974      112.2957
   397     1358.1410      172.9811      132.0100      111.7847
   398     1645.8720      173.0001      132.4412      111.3029
   399     1462.2890      173.0488      132.8837      110.8505
   400     1746.5370      173.1332      133.3451      110.4272
   401     1762.3430      173.2488      133.8202      110.0331
   402     1735.2550      173.3977      134.3122      109.6677
   403     1577.6810      173.5785      134.8197      109.3305
   404     1811.2570      173.7902      135.3420      109.0210
   405     1633.8830      174.0337      135.8810      108.7386
   406     2116.8460      174.3074      136.4350      108.4830
   407     2058.3430      174.6111      137.0044      108.2536
   408     1857.5620      174.9451      137.5899      108.0500
   409     1554.0190      175.3074      138.1897      107.8715
   410     1659.9050      175.6997      138.8064      107.7179
   411     2167.3170      176.1201      139.4381      107.5885
   412     1571.5070      176.5669      140.0831      107.4830
   413     1791.0930      177.0433      140.7459      107.4007
   414     1545.9320      177.5455      141.4221      107.3414
   415     1789.6420      178.0735      142.1124      107.3044
   416     1889.8370      178.6289      142.8190      107.2894
   417     1454.9660      179.2100      143.5403      107.2959
   418     1793.3480      179.8166      144.2765      107.3233
   419     1574.8160      180.4474      145.0265      107.3713
   420     1628.7290      181.1020      145.7899      107.4394
   421     1607.1250      181.7811      146.5683      107.5271
   422     1956.1910      182.4848      147.3622      107.6341
   423     1876.3160      183.2107      148.1689      107.7597
   424     2040.8760      183.9593      148.9893      107.9036
   425     1580.0280      184.7290      149.8222      108.0654
   426     1836.2190      185.5231      150.6716      108.2445
   427     1733.8680      186.3374      151.5331      108.4405
   428     1567.7670      187.1725      152.4075      108.6531
   429     2139.0720      188.0295      153.2967      108.8817
   430     1756.1660      188.9049      154.1966      109.1259
   431     1826.8010      189.8019      155.1116      109.3853
   432     1836.5310      190.7170      156.0378      109.6594
   433     1653.6420      191.6509      156.9763      109.9478
   434     1982.1940      192.6066      157.9311      110.2500
   435     1663.2630      193.5775      158.8946      110.5657
   436     1387.3870      194.5673      159.8715      110.8943
   437     1855.8610      195.5737      160.8594      111.2356
   438     1883.5160      196.5988      161.8610      111.5889
   439     1683.1280      197.6372      162.8705      111.9540
   440     1645.1450      198.6951      163.8952      112.3303
   441     1775.1910      199.7671      164.9293      112.7174
   442     2446.8640      200.8560      165.9763      113.1150
   443     1619.6330      201.9597      167.0339      113.5226
   444     1583.9860      203.0770      168.1012      113.9398
   445     1766.2470      204.2099      169.1806      114.3661
   446     1851.3400      205.3562      170.2700      114.8012
   447     1814.4580      206.5150      171.3684      115.2446
   448     1933.4270      207.6896      172.4803      115.6959
   449     1768.2910      208.8749      173.5995      116.1548
   450     1870.9270      210.0736      174.7299      116.6207
   451     2066.3720      211.2821      175.8673      117.0933
   452     2180.6670      212.5048      177.0171      117.5723
   453     2175.5930      213.7380      178.1754      118.0571
   454     1868.2070      214.9838      179.3448      118.5474
   455     2353.2570      216.2377      180.5202      119.0427
   456     2406.6330      217.5032      181.7063      119.5428
   457     1863.7250      218.7783      182.9007      120.0471
   458     1999.2390      220.0637      184.1045      120.5552
   459     2055.1430      221.3569      185.3151      121.0669
   460     2054.8340      222.6595      186.5346      121.5817
   461     2167.6890      223.9700      187.7615      122.0991
   462     2431.0440      225.2891      188.9968      122.6189
   463     2160.2970      226.6161      190.2400      123.1407
   464     1904.1760      227.9493      191.4891      123.6639
   465     2556.8390      229.2910      192.7475      124.1884
   466     2482.2730      230.6388      194.0123      124.7136
   467     2036.2440      231.9924      195.2833      125.2393
   468     2063.4310      233.3527      196.5621      125.7651
   469     1889.2660      234.7195      197.8483      126.2905
   470     2221.7190      236.0914      199.1409      126.8152
   471     2555.0170      237.4668      200.4378      127.3389
   472     2280.7370      238.8488      201.7432      127.8611
   473     2490.0810      240.2328      203.0517      128.3816
   474     2135.7770      241.6227      204.3682      128.8999
   475     2101.3540      243.0168      205.6909      129.4157
   476     2427.0460      244.4131      207.0177      129.9287
   477     1911.0300      245.8119      208.3491      130.4384
   478     2149.3050      247.2160      209.6886      130.9445
   479     2305.2620      248.6213      211.0315      131.4467
   480     2394.3630      250.0272      212.3775      131.9447
   481     2047.5860      251.4380      213.7317      132.4380
   482     2119.0060      252.8487      215.0885      132.9262
   483     2674.8480      254.2598      216.4487      133.4092
   484     2645.2260      255.6733      217.8147      133.8864
   485     2046.4270      257.0862      219.1834      134.3576
   486     2554.7330      258.5000      220.5565      134.8225
   487     2107.7510      259.9119      221.9311      135.2805
   488     2475.1150      261.3268      223.3129      135.7315
   489     2330.0820      262.7383      224.6949      136.1750
   490     2627.6690      264.1499      226.0812      136.6107
   491     2270.1650      265.5604      227.4705      137.0382
   492     2857.2330      266.9694      228.8627      137.4573
   493     2535.2160      268.3765      230.2575      137.8675
   494     2743.3950      269.7807      231.6537      138.2686
   495     2521.3650      271.1831      233.0529      138.6601
   496     2136.0340      272.5833      234.4549      139.0417
   497     1811.2640      273.9787      235.8566      139.4130
   498     2375.1560      275.3726      237.2622      139.7738
   499     2408.2180      276.7610      238.6672      140.1237
   500     2710.9210      278.1472      240.0754      140.4622
   501     2758.2770      278.9242      232.1951      154.5449
   502     2641.4870      280.1687      233.4788      154.8616
   503     2877.2900      281.4061      234.7619      155.1653
   504     2739.0380      282.6378      236.0457      155.4560
   505     2237.3850      283.8617      237.3278      155.7337
   506     2606.2020      285.0789      238.6095      155.9984
   507     2010.5010      286.2905      239.8920      156.2500
   508     2503.4860      287.4932      241.1714      156.4886
   509     2340.6080      288.6909      242.4522      156.7142
   510     2718.1460      289.8821      243.7327      156.9267
   511     2264.4090      291.0650      245.0106      157.1261
   512     3602.7630      292.2427      246.2896      157.3125
   513     2734.2470      293.4146      247.5689      157.4857
   514     2323.0660      294.5798      248.8475      157.6458
   515     2132.1720      295.7372      250.1239      157.7927
   516     2385.3710      296.8887      251.4003      157.9266
   517     2725.6830      298.0349      252.6774      158.0473
   518     2658.7420      299.1734      253.9524      158.1548
   519     2350.3540      300.3073      255.2287      158.2491
   520     2589.2170      301.4335      256.5027      158.3303
   521     2587.5460      302.5542      257.7771      158.3983
   522     2156.3230      303.6678      259.0497      158.4531
   523     2258.3770      304.7759      260.3224      158.4947
   524     2413.3890      305.8769      261.5934      158.5231
   525     2824.0970      306.9724      262.8643      158.5383
   526     2475.9050      308.0612      264.1339      158.5402
   527     1887.0110      309.1454      265.4043      158.5290
   528     3083.7530      310.2223      266.6724      158.5046
   529     2828.6320      311.2950      267.9418      158.4669
   530     2200.1860      312.3597      269.2080      158.4160
   531     2311.9430      313.4193      270.4742      158.3519
   532     2397.1660      314.4732      271.7399      158.2746
   533     2457.6970      315.5210      273.0042      158.1840
   534     2476.9130      316.5638      274.2686      158.0803
   535     2631.8300      317.6001      275.5312      157.9633
   536     2603.2550      318.6310      276.7931      157.8332
   537     1947.9130      319.6569      278.0548      157.6898
   538     2523.2470      320.6782      279.3166      157.5332
   539     2671.8430      321.6928      280.5762      157.3635
   540     2583.9120      322.7013      281.8340      157.1805
   541     2282.0690      323.7059      283.0926      156.9843
   542     1612.3320      324.7037      284.3486      156.7750
   543     2666.0880      325.6968      285.6042      156.5524
   544     2911.6150      326.6844      286.8585      156.3167
   545     2596.8200      327.6683      288.1134      156.0677
   546     2635.5820      328.6451      289.3652      155.8056
   547     2942.2610      329.6186      290.6178      155.5303
   548     2936.6310      330.5871      291.8696      155.2418
   549     2508.7060      331.5493      293.1186      154.9401
   550     1991.5040      332.5075      294.3677      154.6252
   551     2821.1340      333.4616      295.6163      154.2971
   552     2680.7440      334.4099      296.8628      153.9561
   553     2263.6160      335.3540      298.1084      153.6025
   554     2413.3920      336.2955      299.3547      153.2366
   555     2827.4010      337.2323      300.5991      152.8588
   556     2214.3900      338.1685      301.8461      152.4692
   557     2464.7450      339.0996      303.0904      152.0682
   558     2105.5140      340.0284      304.3349      151.6561
   559     2250.4600      340.9563      305.5810      151.2332
   560     2469.6260      341.8826      306.8276      150.7997
   561     2647.6140      342.8066      308.0738      150.3559
   562     3108.9760      343.7312      309.3226      149.9022
   563     2424.2810      344.6536      310.5707      149.4388
   564     3160.4040      345.5770      311.8215      148.9659
   565     2428.1120      346.4987      313.0716      148.4840
   566     2856.3140      347.4229      314.3257      147.9931
   567     1763.6190      348.3473      315.5812      147.4937
   568     2406.8930      349.2727      316.8384      146.9859
   569     1906.9840      350.1988      318.0971      146.4700
   570     2332.5560      351.1267      319.3582      145.9464
   571     3010.3110      352.0570      320.6221      145.4152
   572     2226.7000      352.9901      321.8893      144.8768
   573     2732.1470      353.9257      323.1592      144.3313
   574     2071.2640      354.8648      324.4327      143.7791
   575     2320.5030      355.8064      325.7087      143.2204
   576     2117.7830      356.7518      326.9881      142.6555
   577     2987.6400      357.7012      328.2714      142.0847
   578     2632.5790      358.6563      329.5600      141.5081
   579     2349.3420      359.6153      330.8520      140.9261
   580     3085.4190      360.5801      332.1490      140.3388
   581     2863.4390      361.5481      333.4485      139.7467
   582     1961.6020      362.5233      334.7543      139.1498
   583     2626.2260      363.5048      336.0655      138.5486
   584     2374.5780      364.4937      337.3831      137.9432
   585     2434.5330      365.4874      338.7040      137.3339
   586     2732.8940      366.4880      340.0307      136.7209
   587     2545.5660      367.4972      341.3645      136.1045
   588     1653.7670      368.5138      342.7042      135.4851
   589     2840.0510      369.5395      344.0516      134.8627
   590     1666.3560      370.5724      345.4043      134.2377
   591     2358.1870      371.6143      346.7642      133.6104
   592     2074.8890      372.6648      348.1309      132.9810
   593     2011.2190      373.7263      349.5067      132.3497
   594     2595.4290      374.7950      350.8873      131.7169
   595     1946.0930      375.8773      352.2798      131.0828
   596     1949.0800      376.9659      353.6760      130.4476
   597     2480.1990      378.0675      355.0830      129.8116
   598     1885.4780      379.1838      356.5027      129.1750
   599     1944.5410      380.3088      357.9284      128.5382
   600     2256.7960      381.4422      359.3597      127.9014
   601     1639.9860      382.5929      360.8061      127.2647
   602     1982.9290      383.7510      362.2569      126.6286
   603     1677.9410      384.9269      363.7230      125.9932
   604     1929.6310      386.1162      365.1998      125.3588
   605     1966.5970      387.3147      366.6827      124.7256
   606     3074.7220      388.5303      368.1800      124.0939
   607     2238.7970      389.7615      369.6901      123.4638
   608     3023.8420      391.0066      371.2109      122.8357
   609     1445.4170      392.2610      372.7378      122.2098
   610     2360.0000      393.5354      374.2817      121.5864
   611     1926.9990      394.8245      375.8374      120.9656
   612     2376.2740      396.1343      377.4107      120.3477
   613     1745.9230      397.4539      378.9903      119.7329
   614     2238.6360      398.7912      380.5844      119.1214
   615     1836.9480      400.1497      382.1967      118.5136
   616     2260.7500      401.5215      383.8187      117.9096
   617     2697.2870      402.9140      385.4584      117.3096
   618     1705.4540      404.3261      387.1143      116.7139
   619     1800.1730      405.7467      388.7749      116.1226
   620     1770.9680      407.1935      390.4586      115.5361
   621      973.6813      408.6636      392.1624      114.9545
   622     2220.0460      410.1418      393.8705      114.3780
   623     1570.5860      411.6426      395.5978      113.8069
   624     1296.6620      413.1711      397.3497      113.2413
   625     1656.5740      414.7082      399.1062      112.6814
   626     2174.4010      416.2683      400.8825      112.1276
   627     3347.2850      417.8564      402.6834      111.5799
   628     1661.3040      419.4689      404.5054      111.0386
   629     1144.9320      421.0944      406.3365      110.5039
   630     2028.5940      422.7397      408.1839      109.9759
   631     2154.2510      424.4172      410.0604      109.4549
   632     1165.4100      426.1017      411.9399      108.9412
   633     1395.9630      427.8279      413.8582      108.4347
   634     2533.2110      429.5688      415.7874      107.9359
   635     2076.2870      431.3197      417.7228      107.4447
   636     1446.4650      433.1147      419.6993      106.9616
   637     1608.6250      434.9149      421.6771      106.4865
   638     2489.5650      436.7689      423.7061      106.0198
   639     1774.3910      438.6227      425.7307      105.5617
   640     1961.5890      440.4986      427.7738      105.1122
   641     1988.8600      442.4100      429.8493      104.6717
   642     1764.8230      444.3471      431.9471      104.2403
   643     2413.0850      446.3165      434.0740      103.8182
   644     2575.4910      448.2974      436.2085      103.4055
   645      839.6868      450.3147      438.3764      103.0026
   646     2163.5450      452.3437      440.5521      102.6095
   647     2605.5040      454.4235      442.7758      102.2265
   648     2018.9800      456.5255      445.0183      101.8538
   649     1410.1050      458.6394      447.2690      101.4915
   650     2408.2620      460.7873      449.5505      101.1399
   651     2198.2590      462.9780      451.8718      100.7992
   652     1453.8770      465.1775      454.1983      100.4692
   653     1987.8890      467.4173      456.5620      100.1501
   654     1255.2930      469.6909      458.9566       99.8416
   655     2151.9200      471.9780      461.3613       99.5439
   656     1166.5930      474.2883      463.7861       99.2568
   657     2002.8060      476.6489      466.2586       98.9803
   658      973.8714      479.0342      468.7529       98.7143
   659     1823.7290      481.4411      471.2657       98.4589
   660     1490.1040      483.8739      473.8016       98.2140
   661     2360.4760      486.3443      476.3726       97.9795
   662     1367.6110      488.8539      478.9802       97.7555
   663      761.7717      491.3711      481.5923       97.5418
   664     2583.3500      493.9254      484.2391       97.3385
   665     2309.8940      496.5185      486.9223       97.1456
   666     1493.8380      499.1322      489.6234       96.9630
   667     2101.2500      501.7710      492.3472       96.7906
   668     2202.5560      504.4463      495.1051       96.6285
   669     1663.0070      507.1599      497.8991       96.4766
   670     1817.6560      509.8936      500.7106       96.3349
   671     2483.9330      512.6529      503.5453       96.2034
   672      736.5783      515.4499      506.4157       96.0821
   673     1175.0270      518.2798      509.3168       95.9708
   674      647.5163      521.1342      512.2401       95.8697
   675     2934.2380      524.0135      515.1859       95.7786
   676     2275.5460      526.9403      518.1777       95.6975
   677     1073.4980      529.8892      521.1891       95.6264
   678     1649.8080      532.8623      524.2228       95.5653
   679     2256.7300      535.8723      527.2913       95.5142
   680     2082.5560      538.9164      530.3922       95.4729
   681     2104.4450      541.9844      533.5148       95.4416
   682     1651.1250      545.0864      536.6696       95.4200
   683     2186.4080      548.2119      539.8459       95.4083
   684     1995.2800      551.3735      543.0565       95.4063
   685     1917.9730      554.5815      546.3120       95.4141
   686     1003.4650      557.7996      549.5755       95.4315
   687     2259.5700      561.0662      552.8860       95.4585
   688     1725.2520      564.3426      556.2043       95.4952
   689     2028.7550      567.6666      559.5688       95.5414
   690     2338.2970      571.0109      562.9518       95.5971
   691     1938.3510      574.4054      566.3835       95.6622
   692     1301.9050      577.8193      569.8330       95.7368
   693     1552.5060      581.2547      573.3022       95.8207
   694     2642.0180      584.7272      576.8071       95.9139
   695     2016.5310      588.2446      580.3555       96.0164
   696      404.6866      591.7851      583.9255       96.1281
   697     1409.0860      595.3565      587.5249       96.2490
   698     1388.4230      598.9643      591.1593       96.3789
   699      710.6379      602.5924      594.8124       96.5180
   700     2079.5490      606.2666      598.5106       96.6660
   701     1352.5270      609.9623      602.2286       96.8229
   702     1763.6210      613.6904      605.9778       96.9885
   703     2862.5330      617.4654      609.7728       97.1627
   704     1477.5080      621.2591      613.5852       97.3450
   705     2519.3800      625.0733      617.4168       97.5354
   706     2642.4900      628.9316      621.2915       97.7335
   707     1774.4990      632.8217      625.1970       97.9392
   708     1383.2980      636.7433      629.1328       98.1522
   709     2195.9020      640.6833      633.0861       98.3722
   710     2531.9510      644.6664      637.0816       98.5991
   711     1768.4830      648.6822      641.1090       98.8326
   712     2907.7530      652.7105      645.1478       99.0725
   713     2154.9090      656.7858      649.2329       99.3185
   714     1852.6350      660.8893      653.3455       99.5705
   715     2027.1020      665.0092      657.4737       99.8283
   716     1505.2500      669.1722      661.6443      100.0916
   717     2828.7210      673.3748      665.8539      100.3603
   718      648.2214      677.5936      670.0790      100.6341
   719     2302.2890      681.8288      674.3198      100.9128
   720     1372.7570      686.1150      678.6112      101.1962
   721     1955.9950      690.4188      682.9195      101.4842
   722      834.9910      694.7614      687.2663      101.7764
   723     1849.8230      699.1154      691.6238      102.0728
   724     2255.7890      703.5266      696.0384      102.3731
   725     1223.6100      707.9351      700.4495      102.6772
   726     2303.4320      712.3826      704.8993      102.9849
   727     1668.2650      716.8692      709.3881      103.2959
   728     2384.5630      721.3844      713.9051      103.6102
   729     2365.6240      725.9071      718.4290      103.9274
   730     1317.5530      730.4849      723.0081      104.2475
   731     2188.3240      735.0729      727.5969      104.5703
   732     2777.0870      739.6958      732.2204      104.8955
   733     3069.6970      744.3440      736.8691      105.2230
   734     1816.8880      749.0308      741.5563      105.5527
   735     1830.3700      753.7279      746.2535      105.8842
   736     2063.7430      758.4740      750.9998      106.2176
   737     3967.9360      763.2285      755.7542      106.5525
   738     2022.4770      768.0212      760.5468      106.8888
   739     3343.9830      772.8327      765.3580      107.2264
   740     2501.6490      777.6819      770.2071      107.5650
   741     1507.3290      782.5655      775.0906      107.9044
   742     1442.4110      787.4693      779.9943      108.2446
   743     2187.6030      792.3802      784.9048      108.5853
   744     1311.8030      797.3392      789.8638      108.9263
   745     1513.5920      802.3203      794.8450      109.2674
   746     2556.5470      807.3475      799.8725      109.6085
   747     2873.5420      812.3659      804.8910      109.9494
   748     1778.8510      817.4454      809.9710      110.2898
   749     2977.9780      822.5300      815.0563      110.6296
   750     1914.7520      827.6608      820.1880      110.9686
   751     1294.7060      832.7963      825.3245      111.3066
   752     2047.5970      837.9759      830.5055      111.6435
   753     3127.3710      843.1711      835.7022      111.9789
   754     2540.7900      848.3991      840.9321      112.3128
   755     2373.5080      853.6591      846.1944      112.6449
   756     1206.0890      858.9442      851.4821      112.9751
   757     2433.6780      864.2511      856.7919      113.3031
   758     2112.8480      869.5826      862.1267      113.6287
   759     2727.8360      874.9442      867.4920      113.9518
   760     2893.1080      880.3391      872.8910      114.2721
   761     2562.2870      885.7547      878.3113      114.5895
   762     1840.9280      891.2027      883.7643      114.9037
   763     2816.4420      896.6796      889.2469      115.2146
   764     1795.3300      902.1787      894.7520      115.5220
   765     1060.1270      907.6910      900.2707      115.8256
   766     2486.9470      913.2488      905.8357      116.1252
   767     2146.0870      918.8285      911.4231      116.4208
   768     2867.0950      924.4187      917.0214      116.7120
   769     3285.3260      930.0475      922.6590      116.9987
   770     1513.1070      935.7142      928.3353      117.2807
   771     2231.1390      941.4085      934.0396      117.5579
   772     1138.3420      947.1122      939.7540      117.8299
   773     3000.3100      952.8450      945.4982      118.0967
   774     2739.3880      958.6132      951.2784      118.3580
   775     2383.1400      964.4095      957.0875      118.6137
   776     2516.0700      970.2133      962.9046      118.8636
   777       65.5945      976.0716      968.7771      119.1075
   778     2102.9640      981.9471      974.6675      119.3453
   779     1536.8010      987.8295      980.5654      119.5767
   780     3826.6730      993.7565      986.5088      119.8016
   781     2270.1720      999.7083      992.4776      120.0199
   782     1109.6430     1005.6945      998.4818      120.2314
   783      484.1669     1011.6969     1004.5028      120.4359
   784      803.5990     1017.7319     1010.5572      120.6333
   785     2225.7400     1023.8008     1016.6463      120.8234
   786     2450.3770     1029.8923     1022.7588      121.0060
   787     3819.2660     1036.0081     1028.8965      121.1811
   788     3403.9200     1042.1366     1035.0475      121.3484
   789     1099.3790     1048.3267     1041.2612      121.5078
   790     2928.1210     1054.5201     1047.4787      121.6592
   791     3063.7790     1060.7340     1053.7176      121.8025
   792     2410.5620     1066.9989     1060.0084      121.9374
   793     -821.6013     1073.2844     1066.3207      122.0639
   794      624.1602     1079.5719     1072.6356      122.1818
   795     2874.2030     1085.9272     1079.0194      122.2909
   796     1643.4680     1092.2836     1085.4049      122.3912
   797     1847.8590     1098.6798     1091.8312      122.4825
   798     2391.1980     1105.0938     1098.2760      122.5646
   799     2265.2290     1111.5362     1104.7501      122.6374
   800     2452.6510     1118.0169     1111.2634      122.7008
   801      769.3172     1124.5251     1117.8050      122.7547
   802     3160.3250     1131.0515     1124.3655      122.7991
   803     2265.5780     1137.6054     1130.9544      122.8340
   804     3247.2630     1144.2038     1137.5886      122.8595
   805     3006.3290     1150.8307     1144.2521      122.8757
   806     1543.6820     1157.4737     1150.9324      122.8826
   807     2663.5130     1164.1527     1157.6493      122.8802
   808     1882.5250     1170.8676     1164.4030      122.8687
   809     3586.0810     1177.5976     1171.1723      122.8481
   810     3490.1720     1184.3833     1177.9981      122.8183
   811     1045.9020     1191.1835     1184.8389      122.7795
   812     1346.2500     1198.0190     1191.7158      122.7316
   813     1032.1980     1204.8686     1198.6072      122.6748
   814     1037.0190     1211.7604     1205.5414      122.6090
   815     2018.1240     1218.6789     1212.5030      122.5343
   816     4058.8770     1225.6390     1219.5068      122.4506
   817     2068.9790     1232.6333     1226.5453      122.3581
   818      858.9133     1239.6453     1233.6020      122.2567
   819     2810.3560     1246.6978     1240.6997      122.1465
   820     4905.7440     1253.7823     1247.8298      122.0274
   821     2450.5840     1260.9070     1255.0008      121.8996
   822     2959.7430     1268.0676     1262.2081      121.7629
   823     1412.3610     1275.2408     1269.4284      121.6174
   824     1951.2600     1282.4547     1276.6898      121.4631
   825     2193.0560     1289.7042     1283.9872      121.3000
   826     1526.4510     1296.9911     1291.3226      121.1281
   827     3246.2290     1304.2906     1298.6708      120.9475
   828     4629.1940     1311.6363     1306.0656      120.7581
   829     2271.2270     1319.0359     1313.5148      120.5599
   830     1787.7500     1326.4513     1320.9800      120.3530
   831       50.1658     1333.8775     1328.4563      120.1373
   832     1585.7160     1341.3676     1335.9970      119.9128
   833     3559.7380     1348.8949     1343.5751      119.6796
   834     3097.9200     1356.4429     1351.1743      119.4377
   835     3530.7130     1364.0153     1358.7981      119.1870
   836     4231.9420     1371.6347     1366.4692      118.9276
   837     3065.1140     1379.2895     1374.1760      118.6594
   838     3182.8420     1386.9898     1381.9285      118.3826
   839     3101.8840     1394.6898     1389.6808      118.0970
   840      398.8621     1402.4649     1397.5086      117.8028
   841      781.6793     1410.2459     1405.3424      117.5000
   842     3632.6650     1418.0635     1413.2129      117.1885
   843     2822.2810     1425.9248     1421.1275      116.8684
   844     2897.1070     1433.8207     1429.0767      116.5397
   845     3751.6990     1441.7519     1437.0615      116.2025
   846     1410.8730     1449.7012     1445.0643      115.8567
   847      848.6516     1457.7115     1453.1283      115.5025
   848     4975.8390     1465.7285     1461.1991      115.1398
   849     1365.2650     1473.8162     1469.3407      114.7687
   850     1853.3780     1481.9164     1477.4949      114.3893
   851     5132.5350     1490.0484     1485.6810      114.0015
   852     3215.2960     1498.2231     1493.9098      113.6056
   853     2154.5450     1506.4545     1502.1953      113.2017
   854     2434.0910     1514.6810     1510.4758      112.7901
   855     1679.3150     1522.9669     1518.8156      112.3709
   856     1777.5920     1531.2905     1527.1932      111.9443
   857      189.3681     1539.6578     1535.6144      111.5106
   858     3378.0430     1548.0593     1544.0696      111.0699
   859     5681.2180     1556.4749     1552.5388      110.6224
   860     2168.3360     1564.9499     1561.0673      110.1683
   861     2677.7480     1573.4729     1569.6437      109.7077
   862      738.4014     1581.9999     1578.2237      109.2410
   863     3038.6140     1590.5981     1586.8748      108.7682
   864     4344.9390     1599.2025     1595.5319      108.2896
   865     4520.0990     1607.8535     1604.2352      107.8054
   866     4199.3190     1616.5711     1613.0052      107.3156
   867     4980.9210     1625.2973     1621.7832      106.8206
   868     -167.2408     1634.0895     1630.6270      106.3205
   869     1766.7790     1642.8981     1639.4869      105.8155
   870     1735.1440     1651.7642     1648.4040      105.3057
   871     5291.6330     1660.6508     1657.3412      104.7913
   872     -466.4835     1669.5771     1666.3177      104.2725
   873     1700.4880     1678.5674     1675.3580      103.7494
   874     2720.2500     1687.5779     1684.4181      103.2223
   875     3505.9450     1696.6475     1693.5369      102.6912
   876     -134.8983     1705.7332     1702.6714      102.1564
   877     2866.1700     1714.8871     1711.8737      101.6179
   878     1762.7400     1724.0816     1721.1162      101.0760
   879      236.7774     1733.2883     1730.3705      100.5307
   880     5779.4360     1742.5605     1739.6898       99.9822
   881     4363.6350     1751.8740     1749.0501       99.4306
   882       64.5405     1761.2313     1758.4536       98.8761
   883     1983.5280     1770.6305     1767.8987       98.3188
   884     1298.9010     1780.0674     1777.3810       97.7588
   885     2189.9180     1789.5444     1786.9029       97.1963
   886     1846.9600     1799.0645     1796.4675       96.6313
   887     1676.7120     1808.6296     1806.0766       96.0640
   888     5147.6170     1818.2595     1815.7501       95.4945
   889     1641.5090     1827.9010     1825.4346       94.9230
   890     2231.0490     1837.6343     1835.2106       94.3495
   891     1112.8380     1847.3618     1844.9802       93.7741
   892     2911.3020     1857.1199     1854.7799       93.1969
   893     2144.4050     1866.9732     1864.6744       92.6182
   894     2158.2870     1876.8760     1874.6179       92.0379
   895     4900.9950     1886.8071     1884.5893       91.4562
   896    -1608.9600     1896.7611     1894.5830       90.8732
   897     7976.6530     1906.7905     1904.6517       90.2890
   898     3415.3180     1916.8663     1914.7663       89.7037
   899     3429.3640     1926.9900     1924.9282       89.1175
   900     -128.5050     1937.1606     1935.1366       88.5304
   901     6420.6870     1947.3768     1945.3900       87.9427
   902      997.7878     1957.6264     1955.6765       87.3543
   903     8074.3260     1967.9349     1966.0212       86.7654
   904     1937.6980     1978.3176     1976.4398       86.1762
   905     1740.3410     1988.7340     1986.8915       85.5868
   906     3219.4720     1999.2070     1997.3993       84.9973
   907     1148.1110     2009.7132     2007.9399       84.4079
   908     3355.7850     2020.2641     2018.5246       83.8186
   909      784.5409     2030.9003     2029.1941       83.2297
   910     2027.5980     2041.5401     2039.8667       82.6412
   911     2095.9030     2052.2924     2050.6514       82.0534
   912      647.7111     2063.0494     2061.4403       81.4663
   913     3767.3470     2073.8892     2072.3114       80.8802
   914     3541.7910     2084.8010     2083.2541       80.2951
   915     1808.2810     2095.6881     2094.1716       79.7113
   916    -2710.1290     2106.7158     2105.2293       79.1289
   917     5917.8610     2117.7558     2116.2987       78.5481
   918     2302.2390     2128.8678     2127.4395       77.9689
   919     1029.5410     2140.0224     2138.6225       77.3917
   920     4901.4390     2151.2852     2149.9133       76.8166
   921      942.8597     2162.5228     2161.1783       76.2436
   922     -663.6274     2173.8984     2172.5809       75.6731
   923       96.4221     2185.2842     2183.9932       75.1052
   924     4774.9560     2196.7415     2195.4764       74.5400
   925     2728.1980     2208.2707     2207.0312       73.9778
   926     -268.4664     2219.8438     2218.6293       73.4186
   927     5086.6180     2231.4844     2230.2945       72.8627
   928      921.2722     2243.2028     2242.0370       72.3102
   929     5169.5650     2254.9879     2253.8457       71.7613
   930     2373.2580     2266.8153     2265.6964       71.2162
   931     3203.2110     2278.7134     2277.6171       70.6749
   932     1301.6780     2290.6817     2289.6076       70.1378
   933     -528.5738     2302.7206     2301.6684       69.6049
   934     1391.5810     2314.7991     2313.7682       69.0764
   935     1189.5030     2326.9778     2325.9678       68.5524
   936       -5.9575     2339.2266     2338.2370       68.0330
   937     7134.6780     2351.5439     2350.5744       67.5186
   938     1267.3700     2363.9313     2362.9814       67.0090
   939     2150.2580     2376.3548     2375.4240       66.5046
   940     1360.0610     2388.8779     2387.9658       66.0054
   941     3426.4120     2401.4679     2400.5741       65.5116
   942     5591.7960     2414.1253     2413.2495       65.0232
   943      719.0785     2426.8805     2426.0222       64.5405
   944    -3756.2010     2439.7000     2438.8587       64.0634
   945     5394.4220     2452.5874     2451.7628       63.5922
   946     1822.6090     2465.5094     2464.7011       63.1269
   947    -1960.1660     2478.5561     2477.7638       62.6676
   948     5553.6640     2491.6686     2490.8917       62.2145
   949     4303.2290     2504.8755     2504.1138       61.7676
   950     1315.3340     2518.1435     2517.3966       61.3271
   951    -2179.5830     2531.4773     2530.7448       60.8929
   952      414.7778     2544.9309     2544.2125       60.4651
   953     -199.8245     2558.4489     2557.7443       60.0436
   954      221.5968     2572.0255     2571.3342       59.6285
   955     3870.0880     2585.6927     2585.0145       59.2196
   956     5808.4470     2599.4495     2598.7840       58.8169
   957     2567.1670     2613.2953     2612.6422       58.4205
   958      944.1034     2627.2295     2626.5885       58.0301
   959     -277.8577     2641.2182     2640.5891       57.6459
   960    -3292.6020     2655.3273     2654.7097       57.2677
   961     2481.0370     2669.4889     2668.8825       56.8956
   962     2702.2050     2683.7365     2683.1411       56.5295
   963     3045.9870     2698.1025     2697.5178       56.1693
   964      522.8027     2712.5434     2711.9690       55.8150
   965    -2197.9450     2727.0443     2726.4802       55.4667
   966     -677.0903     2741.6515     2741.0973       55.1242
   967     4769.6780     2756.3413     2755.7968       54.7876
   968    -2073.1580     2771.1357     2770.6005       54.4569
   969     4043.3060     2786.0101     2785.4841       54.1320
   970     2525.5830     2801.0001     2800.4831       53.8129
   971     3101.9700     2816.0572     2815.5490       53.4997
   972     1373.2240     2831.2274     2830.7277       53.1923
   973      351.5016     2846.4420     2845.9506       52.8907
   974    -1618.9930     2861.7907     2861.3073       52.5951
   975     3723.7430     2877.2377     2876.7622       52.3053
   976     1950.0750     2892.7607     2892.2929       52.0213
   977     4950.9420     2908.3607     2907.9004       51.7434
   978     5818.3810     2924.1110     2923.6580       51.4713
   979    -1219.0620     2939.9164     2939.4704       51.2053
   980    -2880.7730     2955.8367     2955.3976       50.9453
   981     1948.8260     2971.8309     2971.3985       50.6913
   982       44.5690     2987.9520     2987.5261       50.4435
   983     2673.6300     3004.1661     3003.7466       50.2018
   984    -1809.0600     3020.4709     3020.0576       49.9663
   985    -2192.5220     3036.9006     3036.4933       49.7371
   986     3221.6080     3053.4024     3053.0009       49.5141
   987      736.2443     3070.0459     3069.6500       49.2976
   988     6227.0930     3086.7609     3086.3706       49.0875
   989     1961.6300     3103.5982     3103.2132       48.8838
   990     2815.9290     3120.5400     3120.1602       48.6867
   991     1627.9160     3137.5506     3137.1758       48.4962
   992     4078.9210     3154.6997     3154.3297       48.3123
   993     3416.8250     3171.9683     3171.6031       48.1351
   994     -769.9375     3189.3229     3188.9622       47.9646
   995      374.5935     3206.7950     3206.4388       47.8010
   996     2427.8960     3224.3856     3224.0335       47.6442
   997     3278.9910     3242.0747     3241.7268       47.4943
   998     -453.5878     3259.8820     3259.5381       47.3512
   999     1372.1300     3277.8061     3277.4660       47.2152
  1000     -113.1067     3295.8609     3295.5245       47.0861
